# wavelength, Lum[W], Lum_error [W]
3650.0519, 3.025211428e+25, 1.402071275e+24
3650.1128, 3.027499015e+25, 1.402213768e+24
3650.1737, 3.028416577e+25, 1.402138428e+24
3650.2346, 3.029334154e+25, 1.402063095e+24
3650.2954, 3.030251747e+25, 1.401987770e+24
3650.3563, 3.031169355e+25, 1.401912452e+24
3650.4172, 3.032086978e+25, 1.401837143e+24
3650.4781, 3.033004617e+25, 1.401761841e+24
3650.5390, 3.033922271e+25, 1.401686547e+24
3650.5999, 3.034839940e+25, 1.401611261e+24
3650.6607, 3.035757624e+25, 1.401535982e+24
3650.7216, 3.036675324e+25, 1.401460712e+24
3650.7825, 3.037593039e+25, 1.401385449e+24
3650.8434, 3.038510770e+25, 1.401310194e+24
3650.9043, 3.038908595e+25, 1.401256885e+24
3650.9652, 3.031474014e+25, 1.401538852e+24
3651.0261, 3.024039309e+25, 1.401829824e+24
3651.0870, 3.016604480e+25, 1.402129794e+24
3651.1479, 3.009169526e+25, 1.402438758e+24
3651.2088, 3.001734449e+25, 1.402756710e+24
3651.2697, 2.994299248e+25, 1.403083644e+24
3651.3305, 2.986863923e+25, 1.403419555e+24
3651.3914, 2.979428473e+25, 1.403764436e+24
3651.4523, 2.971992900e+25, 1.404118282e+24
3651.5132, 2.964557203e+25, 1.404481086e+24
3651.5741, 2.957121381e+25, 1.404852841e+24
3651.6350, 2.949685436e+25, 1.405233542e+24
3651.6960, 2.942249367e+25, 1.405623180e+24
3651.7569, 2.938305597e+25, 1.406039755e+24
3651.8178, 2.944541754e+25, 1.406512855e+24
3651.8787, 2.950778016e+25, 1.406987095e+24
3651.9396, 2.957014381e+25, 1.407462476e+24
3652.0005, 2.963250850e+25, 1.407938995e+24
3652.0614, 2.969487424e+25, 1.408416653e+24
3652.1223, 2.975724101e+25, 1.408895448e+24
3652.1832, 2.981960882e+25, 1.409375379e+24
3652.2441, 2.988197768e+25, 1.409856444e+24
3652.3050, 2.994434757e+25, 1.410338643e+24
3652.3660, 3.000671851e+25, 1.410821974e+24
3652.4269, 3.006909048e+25, 1.411306437e+24
3652.4878, 3.013146350e+25, 1.411792031e+24
3652.5487, 3.019383755e+25, 1.412278753e+24
3652.6096, 3.035674910e+25, 1.414441331e+24
3652.6705, 3.064246151e+25, 1.418649965e+24
3652.7315, 3.092817868e+25, 1.422858873e+24
3652.7924, 3.121390063e+25, 1.427068056e+24
3652.8533, 3.149962733e+25, 1.431277511e+24
3652.9142, 3.178535880e+25, 1.435487235e+24
3652.9752, 3.207109504e+25, 1.439697229e+24
3653.0361, 3.235683604e+25, 1.443907489e+24
3653.0970, 3.264258181e+25, 1.448118014e+24
3653.1579, 3.292833235e+25, 1.452328802e+24
3653.2189, 3.321408765e+25, 1.456539852e+24
3653.2798, 3.349984771e+25, 1.460751163e+24
3653.3407, 3.378561255e+25, 1.464962731e+24
3653.4017, 3.407138215e+25, 1.469174557e+24
3653.4626, 3.414061172e+25, 1.470488068e+24
3653.5235, 3.409054527e+25, 1.470206563e+24
3653.5845, 3.404047798e+25, 1.469927227e+24
3653.6454, 3.399040986e+25, 1.469650061e+24
3653.7063, 3.394034090e+25, 1.469375067e+24
3653.7673, 3.389027111e+25, 1.469102246e+24
3653.8282, 3.384020048e+25, 1.468831599e+24
3653.8891, 3.379012902e+25, 1.468563129e+24
3653.9501, 3.374005672e+25, 1.468296835e+24
3654.0110, 3.368998359e+25, 1.468032719e+24
3654.0720, 3.363990962e+25, 1.467770784e+24
3654.1329, 3.358983482e+25, 1.467511029e+24
3654.1939, 3.353975918e+25, 1.467253456e+24
3654.2548, 3.348968270e+25, 1.466998066e+24
3654.3158, 3.354146941e+25, 1.468472150e+24
3654.3767, 3.361299853e+25, 1.470281320e+24
3654.4376, 3.368452884e+25, 1.472090661e+24
3654.4986, 3.375606034e+25, 1.473900173e+24
3654.5596, 3.382759304e+25, 1.475709856e+24
3654.6205, 3.389912693e+25, 1.477519709e+24
3654.6815, 3.397066202e+25, 1.479329732e+24
3654.7424, 3.404219829e+25, 1.481139924e+24
3654.8034, 3.411373576e+25, 1.482950284e+24
3654.8643, 3.418527443e+25, 1.484760812e+24
3654.9253, 3.425681428e+25, 1.486571507e+24
3654.9862, 3.432835533e+25, 1.488382370e+24
3655.0472, 3.439989757e+25, 1.490193399e+24
3655.1082, 3.447332643e+25, 1.491976811e+24
3655.1691, 3.460365266e+25, 1.492921885e+24
3655.2301, 3.473398106e+25, 1.493866983e+24
3655.2910, 3.486431165e+25, 1.494812104e+24
3655.3520, 3.499464440e+25, 1.495757248e+24
3655.4130, 3.512497933e+25, 1.496702415e+24
3655.4739, 3.525531643e+25, 1.497647605e+24
3655.5349, 3.538565570e+25, 1.498592819e+24
3655.5959, 3.551599715e+25, 1.499538055e+24
3655.6568, 3.564634078e+25, 1.500483314e+24
3655.7178, 3.577668657e+25, 1.501428597e+24
3655.7788, 3.590703454e+25, 1.502373902e+24
3655.8398, 3.603738469e+25, 1.503319230e+24
3655.9007, 3.616773701e+25, 1.504264582e+24
3655.9617, 3.627455586e+25, 1.504754222e+24
3656.0227, 3.630095000e+25, 1.503686757e+24
3656.0837, 3.632734458e+25, 1.502619650e+24
3656.1446, 3.635373960e+25, 1.501552899e+24
3656.2056, 3.638013506e+25, 1.500486506e+24
3656.2666, 3.640653096e+25, 1.499420472e+24
3656.3276, 3.643292730e+25, 1.498354798e+24
3656.3886, 3.645932408e+25, 1.497289484e+24
3656.4495, 3.648572130e+25, 1.496224532e+24
3656.5105, 3.651211896e+25, 1.495159941e+24
3656.5715, 3.653851706e+25, 1.494095714e+24
3656.6325, 3.656491560e+25, 1.493031850e+24
3656.6935, 3.659131459e+25, 1.491968351e+24
3656.7545, 3.661771401e+25, 1.490905218e+24
3656.8155, 3.663403689e+25, 1.489780978e+24
3656.8764, 3.663647830e+25, 1.488572150e+24
3656.9374, 3.663891976e+25, 1.487363305e+24
3656.9984, 3.664136126e+25, 1.486154444e+24
3657.0594, 3.664380280e+25, 1.484945565e+24
3657.1204, 3.664624437e+25, 1.483736670e+24
3657.1814, 3.664868599e+25, 1.482527758e+24
3657.2424, 3.665112765e+25, 1.481318829e+24
3657.3034, 3.665356935e+25, 1.480109884e+24
3657.3644, 3.665601110e+25, 1.478900922e+24
3657.4254, 3.665845288e+25, 1.477691943e+24
3657.4864, 3.666089470e+25, 1.476482947e+24
3657.5474, 3.666333657e+25, 1.475273934e+24
3657.6084, 3.666577847e+25, 1.474064905e+24
3657.6694, 3.665877404e+25, 1.473401373e+24
3657.7304, 3.664584863e+25, 1.473079775e+24
3657.7914, 3.663292301e+25, 1.472758199e+24
3657.8524, 3.661999717e+25, 1.472436646e+24
3657.9134, 3.660707111e+25, 1.472115117e+24
3657.9744, 3.659414484e+25, 1.471793610e+24
3658.0354, 3.658121836e+25, 1.471472127e+24
3658.0964, 3.656829166e+25, 1.471150667e+24
3658.1575, 3.655536474e+25, 1.470829230e+24
3658.2185, 3.654243761e+25, 1.470507816e+24
3658.2795, 3.652951026e+25, 1.470186426e+24
3658.3405, 3.651658270e+25, 1.469865059e+24
3658.4015, 3.650365492e+25, 1.469543715e+24
3658.4625, 3.649072693e+25, 1.469222394e+24
3658.5235, 3.654163832e+25, 1.470107081e+24
3658.5846, 3.660764988e+25, 1.471277392e+24
3658.6456, 3.667366254e+25, 1.472448126e+24
3658.7066, 3.673967631e+25, 1.473619284e+24
3658.7676, 3.680569117e+25, 1.474790863e+24
3658.8286, 3.687170714e+25, 1.475962863e+24
3658.8897, 3.693772421e+25, 1.477135283e+24
3658.9507, 3.700374238e+25, 1.478308123e+24
3659.0117, 3.706976165e+25, 1.479481380e+24
3659.0727, 3.713578202e+25, 1.480655055e+24
3659.1338, 3.720180349e+25, 1.481829147e+24
3659.1948, 3.726782606e+25, 1.483003653e+24
3659.2558, 3.733384973e+25, 1.484178575e+24
3659.3169, 3.739941969e+25, 1.485344439e+24
3659.3779, 3.729287805e+25, 1.482926896e+24
3659.4389, 3.718633465e+25, 1.480509505e+24
3659.5000, 3.707978946e+25, 1.478092269e+24
3659.5610, 3.697324250e+25, 1.475675187e+24
3659.6220, 3.686669376e+25, 1.473258261e+24
3659.6831, 3.676014324e+25, 1.470841492e+24
3659.7441, 3.665359095e+25, 1.468424880e+24
3659.8051, 3.654703688e+25, 1.466008427e+24
3659.8662, 3.644048103e+25, 1.463592134e+24
3659.9272, 3.633392341e+25, 1.461176001e+24
3659.9883, 3.622736400e+25, 1.458760030e+24
3660.0493, 3.612080282e+25, 1.456344222e+24
3660.1103, 3.601423987e+25, 1.453928577e+24
3660.1714, 3.589027855e+25, 1.451574086e+24
3660.2324, 3.569515659e+25, 1.449469159e+24
3660.2935, 3.550003138e+25, 1.447364284e+24
3660.3545, 3.530490291e+25, 1.445259461e+24
3660.4156, 3.510977119e+25, 1.443154691e+24
3660.4766, 3.491463622e+25, 1.441049975e+24
3660.5377, 3.471949799e+25, 1.438945311e+24
3660.5987, 3.452435651e+25, 1.436840702e+24
3660.6598, 3.432921177e+25, 1.434736147e+24
3660.7208, 3.413406378e+25, 1.432631647e+24
3660.7819, 3.393891253e+25, 1.430527202e+24
3660.8429, 3.374375803e+25, 1.428422812e+24
3660.9040, 3.354860027e+25, 1.426318478e+24
3660.9651, 3.335343926e+25, 1.424214201e+24
3661.0261, 3.323284747e+25, 1.422637899e+24
3661.0872, 3.322881125e+25, 1.421886909e+24
3661.1482, 3.322477496e+25, 1.421136147e+24
3661.2093, 3.322073861e+25, 1.420385613e+24
3661.2704, 3.321670218e+25, 1.419635307e+24
3661.3314, 3.321266569e+25, 1.418885231e+24
3661.3925, 3.320862913e+25, 1.418135384e+24
3661.4536, 3.320459251e+25, 1.417385767e+24
3661.5146, 3.320055582e+25, 1.416636381e+24
3661.5757, 3.319651906e+25, 1.415887225e+24
3661.6368, 3.319248223e+25, 1.415138300e+24
3661.6978, 3.318844533e+25, 1.414389607e+24
3661.7589, 3.318440837e+25, 1.413641145e+24
3661.8200, 3.318037134e+25, 1.412892916e+24
3661.8811, 3.330091365e+25, 1.413685735e+24
3661.9421, 3.351027716e+25, 1.415577240e+24
3662.0032, 3.371964416e+25, 1.417468894e+24
3662.0643, 3.392901465e+25, 1.419360697e+24
3662.1254, 3.413838864e+25, 1.421252649e+24
3662.1864, 3.434776611e+25, 1.423144748e+24
3662.2475, 3.455714708e+25, 1.425036994e+24
3662.3086, 3.476653155e+25, 1.426929387e+24
3662.3697, 3.497591950e+25, 1.428821927e+24
3662.4308, 3.518531095e+25, 1.430714613e+24
3662.4918, 3.539470588e+25, 1.432607444e+24
3662.5529, 3.560410431e+25, 1.434500420e+24
3662.6140, 3.581350624e+25, 1.436393541e+24
3662.6751, 3.602291165e+25, 1.438286806e+24
3662.7362, 3.593162606e+25, 1.436098288e+24
3662.7973, 3.575500830e+25, 1.432751794e+24
3662.8584, 3.557838760e+25, 1.429405709e+24
3662.9195, 3.540176396e+25, 1.426060036e+24
3662.9805, 3.522513737e+25, 1.422714779e+24
3663.0416, 3.504850783e+25, 1.419369941e+24
3663.1027, 3.487187535e+25, 1.416025526e+24
3663.1638, 3.469523992e+25, 1.412681536e+24
3663.2249, 3.451860155e+25, 1.409337976e+24
3663.2860, 3.434196023e+25, 1.405994848e+24
3663.3471, 3.416531596e+25, 1.402652157e+24
3663.4082, 3.398866875e+25, 1.399309906e+24
3663.4693, 3.381201859e+25, 1.395968098e+24
3663.5304, 3.363536549e+25, 1.392626738e+24
3663.5915, 3.347007386e+25, 1.390246307e+24
3663.6526, 3.330510225e+25, 1.387893346e+24
3663.7137, 3.314012788e+25, 1.385540573e+24
3663.7748, 3.297515077e+25, 1.383187990e+24
3663.8359, 3.281017090e+25, 1.380835598e+24
3663.8970, 3.264518828e+25, 1.378483397e+24
3663.9581, 3.248020291e+25, 1.376131390e+24
3664.0193, 3.231521479e+25, 1.373779576e+24
3664.0804, 3.215022391e+25, 1.371427958e+24
3664.1415, 3.198523029e+25, 1.369076537e+24
3664.2026, 3.182023391e+25, 1.366725314e+24
3664.2637, 3.165523478e+25, 1.364374290e+24
3664.3248, 3.149023290e+25, 1.362023466e+24
3664.3859, 3.137082705e+25, 1.360217503e+24
3664.4470, 3.147828956e+25, 1.361121813e+24
3664.5082, 3.158575386e+25, 1.362026691e+24
3664.5693, 3.169321995e+25, 1.362932137e+24
3664.6304, 3.180068783e+25, 1.363838149e+24
3664.6915, 3.190815751e+25, 1.364744727e+24
3664.7526, 3.201562898e+25, 1.365651869e+24
3664.8138, 3.212310224e+25, 1.366559575e+24
3664.8749, 3.223057729e+25, 1.367467843e+24
3664.9360, 3.233805414e+25, 1.368376672e+24
3664.9971, 3.244553278e+25, 1.369286062e+24
3665.0583, 3.255301321e+25, 1.370196010e+24
3665.1194, 3.266049543e+25, 1.371106517e+24
3665.1805, 3.276797945e+25, 1.372017580e+24
3665.2416, 3.286104241e+25, 1.372290742e+24
3665.3028, 3.292853252e+25, 1.371432216e+24
3665.3639, 3.299602376e+25, 1.370574029e+24
3665.4250, 3.306351613e+25, 1.369716181e+24
3665.4862, 3.313100962e+25, 1.368858673e+24
3665.5473, 3.319850424e+25, 1.368001507e+24
3665.6084, 3.326599998e+25, 1.367144681e+24
3665.6696, 3.333349685e+25, 1.366288198e+24
3665.7307, 3.340099484e+25, 1.365432058e+24
3665.7919, 3.346849396e+25, 1.364576262e+24
3665.8530, 3.353599421e+25, 1.363720809e+24
3665.9141, 3.360349558e+25, 1.362865702e+24
3665.9753, 3.367099807e+25, 1.362010940e+24
3666.0364, 3.373850170e+25, 1.361156525e+24
3666.0976, 3.370236898e+25, 1.360186430e+24
3666.1587, 3.358326732e+25, 1.359123513e+24
3666.2198, 3.346416368e+25, 1.358060578e+24
3666.2810, 3.334505805e+25, 1.356997625e+24
3666.3421, 3.322595043e+25, 1.355934654e+24
3666.4033, 3.310684082e+25, 1.354871666e+24
3666.4644, 3.298772923e+25, 1.353808660e+24
3666.5256, 3.286861565e+25, 1.352745636e+24
3666.5867, 3.274950009e+25, 1.351682594e+24
3666.6479, 3.263038253e+25, 1.350619535e+24
3666.7090, 3.251126300e+25, 1.349556458e+24
3666.7702, 3.239214147e+25, 1.348493364e+24
3666.8314, 3.227301796e+25, 1.347430251e+24
3666.8925, 3.215389246e+25, 1.346367121e+24
3666.9537, 3.230565087e+25, 1.347516563e+24
3667.0148, 3.254845962e+25, 1.349411425e+24
3667.0760, 3.279127242e+25, 1.351308281e+24
3667.1372, 3.303408926e+25, 1.353207124e+24
3667.1983, 3.327691016e+25, 1.355107946e+24
3667.2595, 3.351973511e+25, 1.357010739e+24
3667.3206, 3.376256411e+25, 1.358915495e+24
3667.3818, 3.400539716e+25, 1.360822205e+24
3667.4430, 3.424823426e+25, 1.362730862e+24
3667.5041, 3.449107541e+25, 1.364641458e+24
3667.5653, 3.473392061e+25, 1.366553984e+24
3667.6265, 3.497676986e+25, 1.368468434e+24
3667.6876, 3.521962316e+25, 1.370384798e+24
3667.7488, 3.546248051e+25, 1.372303070e+24
3667.8100, 3.534123411e+25, 1.370232973e+24
3667.8712, 3.519799509e+25, 1.367921961e+24
3667.9323, 3.505475368e+25, 1.365610976e+24
3667.9935, 3.491150988e+25, 1.363300017e+24
3668.0547, 3.476826370e+25, 1.360989086e+24
3668.1159, 3.462501512e+25, 1.358678182e+24
3668.1770, 3.448176416e+25, 1.356367306e+24
3668.2382, 3.433851080e+25, 1.354056458e+24
3668.2994, 3.419525506e+25, 1.351745639e+24
3668.3606, 3.405199693e+25, 1.349434849e+24
3668.4218, 3.390873641e+25, 1.347124088e+24
3668.4829, 3.376547350e+25, 1.344813356e+24
3668.5441, 3.362220820e+25, 1.342502654e+24
3668.6053, 3.350344873e+25, 1.340537975e+24
3668.6665, 3.353834936e+25, 1.340743711e+24
3668.7277, 3.357325057e+25, 1.340951393e+24
3668.7889, 3.360815236e+25, 1.341161020e+24
3668.8501, 3.364305474e+25, 1.341372594e+24
3668.9113, 3.367795769e+25, 1.341586111e+24
3668.9724, 3.371286123e+25, 1.341801572e+24
3669.0336, 3.374776536e+25, 1.342018975e+24
3669.0948, 3.378267006e+25, 1.342238321e+24
3669.1560, 3.381757535e+25, 1.342459607e+24
3669.2172, 3.385248122e+25, 1.342682834e+24
3669.2784, 3.388738767e+25, 1.342908000e+24
3669.3396, 3.392229470e+25, 1.343135104e+24
3669.4008, 3.395720231e+25, 1.343364145e+24
3669.4620, 3.399274695e+25, 1.343460627e+24
3669.5232, 3.402958235e+25, 1.343286224e+24
3669.5844, 3.406641836e+25, 1.343113493e+24
3669.6456, 3.410325499e+25, 1.342942434e+24
3669.7068, 3.414009224e+25, 1.342773049e+24
3669.7680, 3.417693009e+25, 1.342605337e+24
3669.8292, 3.421376856e+25, 1.342439300e+24
3669.8904, 3.425060765e+25, 1.342274939e+24
3669.9516, 3.428744735e+25, 1.342112253e+24
3670.0129, 3.432428766e+25, 1.341951244e+24
3670.0741, 3.436112859e+25, 1.341791913e+24
3670.1353, 3.439797014e+25, 1.341634260e+24
3670.1965, 3.443481230e+25, 1.341478285e+24
3670.2577, 3.447165507e+25, 1.341323990e+24
3670.3189, 3.442776792e+25, 1.341036716e+24
3670.3801, 3.431074262e+25, 1.340628092e+24
3670.4413, 3.419371537e+25, 1.340219788e+24
3670.5026, 3.407668616e+25, 1.339811806e+24
3670.5638, 3.395965501e+25, 1.339404144e+24
3670.6250, 3.384262190e+25, 1.338996805e+24
3670.6862, 3.372558684e+25, 1.338589787e+24
3670.7474, 3.360854983e+25, 1.338183091e+24
3670.8087, 3.349151086e+25, 1.337776717e+24
3670.8699, 3.337446995e+25, 1.337370667e+24
3670.9311, 3.325742708e+25, 1.336964939e+24
3670.9923, 3.314038226e+25, 1.336559535e+24
3671.0536, 3.302333549e+25, 1.336154454e+24
3671.1148, 3.290628677e+25, 1.335749698e+24
3671.1760, 3.287577447e+25, 1.336295943e+24
3671.2372, 3.287909624e+25, 1.337215034e+24
3671.2985, 3.288241806e+25, 1.338135416e+24
3671.3597, 3.288573994e+25, 1.339057086e+24
3671.4209, 3.288906187e+25, 1.339980040e+24
3671.4822, 3.289238386e+25, 1.340904278e+24
3671.5434, 3.289570591e+25, 1.341829795e+24
3671.6046, 3.289902801e+25, 1.342756590e+24
3671.6659, 3.290235016e+25, 1.343684660e+24
3671.7271, 3.290567237e+25, 1.344614002e+24
3671.7884, 3.290899464e+25, 1.345544614e+24
3671.8496, 3.291231696e+25, 1.346476493e+24
3671.9108, 3.291563934e+25, 1.347409637e+24
3671.9721, 3.291896177e+25, 1.348344044e+24
3672.0333, 3.325639211e+25, 1.350932718e+24
3672.0946, 3.362563464e+25, 1.353678955e+24
3672.1558, 3.399488333e+25, 1.356425344e+24
3672.2171, 3.436413819e+25, 1.359171885e+24
3672.2783, 3.473339920e+25, 1.361918577e+24
3672.3395, 3.510266637e+25, 1.364665419e+24
3672.4008, 3.547193969e+25, 1.367412411e+24
3672.4620, 3.584121918e+25, 1.370159552e+24
3672.5233, 3.621050482e+25, 1.372906841e+24
3672.5845, 3.657979663e+25, 1.375654279e+24
3672.6458, 3.694909459e+25, 1.378401863e+24
3672.7071, 3.731839872e+25, 1.381149594e+24
3672.7683, 3.768770900e+25, 1.383897471e+24
3672.8296, 3.798159913e+25, 1.386099026e+24
3672.8908, 3.764696331e+25, 1.383747037e+24
3672.9521, 3.731232190e+25, 1.381395205e+24
3673.0133, 3.697767491e+25, 1.379043532e+24
3673.0746, 3.664302235e+25, 1.376692019e+24
3673.1359, 3.630836420e+25, 1.374340666e+24
3673.1971, 3.597370047e+25, 1.371989476e+24
3673.2584, 3.563903116e+25, 1.369638449e+24
3673.3196, 3.530435626e+25, 1.367287585e+24
3673.3809, 3.496967579e+25, 1.364936887e+24
3673.4422, 3.463498973e+25, 1.362586355e+24
3673.5034, 3.430029809e+25, 1.360235990e+24
3673.5647, 3.396560087e+25, 1.357885793e+24
3673.6260, 3.363089806e+25, 1.355535766e+24
3673.6873, 3.337333731e+25, 1.353068967e+24
3673.7485, 3.329481927e+25, 1.350331188e+24
3673.8098, 3.321629992e+25, 1.347593968e+24
3673.8711, 3.313777926e+25, 1.344857310e+24
3673.9323, 3.305925728e+25, 1.342121218e+24
3673.9936, 3.298073400e+25, 1.339385697e+24
3674.0549, 3.290220941e+25, 1.336650749e+24
3674.1162, 3.282368351e+25, 1.333916378e+24
3674.1774, 3.274515630e+25, 1.331182589e+24
3674.2387, 3.266662778e+25, 1.328449385e+24
3674.3000, 3.258809795e+25, 1.325716770e+24
3674.3613, 3.250956681e+25, 1.322984749e+24
3674.4226, 3.243103436e+25, 1.320253325e+24
3674.4839, 3.235250060e+25, 1.317522502e+24
3674.5451, 3.241417672e+25, 1.317587476e+24
3674.6064, 3.261888202e+25, 1.320505315e+24
3674.6677, 3.282359074e+25, 1.323424997e+24
3674.7290, 3.302830287e+25, 1.326346510e+24
3674.7903, 3.323301842e+25, 1.329269842e+24
3674.8516, 3.343773738e+25, 1.332194982e+24
3674.9129, 3.364245975e+25, 1.335121918e+24
3674.9742, 3.384718554e+25, 1.338050639e+24
3675.0354, 3.405191475e+25, 1.340981134e+24
3675.0967, 3.425664736e+25, 1.343913391e+24
3675.1580, 3.446138340e+25, 1.346847400e+24
3675.2193, 3.466612284e+25, 1.349783148e+24
3675.2806, 3.487086570e+25, 1.352720627e+24
3675.3419, 3.507561198e+25, 1.355659823e+24
3675.4032, 3.519971244e+25, 1.356736967e+24
3675.4645, 3.528738469e+25, 1.356973397e+24
3675.5258, 3.537505841e+25, 1.357210889e+24
3675.5871, 3.546273359e+25, 1.357449444e+24
3675.6484, 3.555041024e+25, 1.357689059e+24
3675.7097, 3.563808834e+25, 1.357929736e+24
3675.7710, 3.572576791e+25, 1.358171474e+24
3675.8323, 3.581344894e+25, 1.358414271e+24
3675.8937, 3.590113144e+25, 1.358658128e+24
3675.9550, 3.598881539e+25, 1.358903044e+24
3676.0163, 3.607650081e+25, 1.359149019e+24
3676.0776, 3.616418769e+25, 1.359396051e+24
3676.1389, 3.625187603e+25, 1.359644141e+24
3676.2002, 3.633956584e+25, 1.359893288e+24
3676.2615, 3.627197578e+25, 1.359062881e+24
3676.3228, 3.618372430e+25, 1.358088749e+24
3676.3841, 3.609547134e+25, 1.357114604e+24
3676.4455, 3.600721691e+25, 1.356140445e+24
3676.5068, 3.591896101e+25, 1.355166273e+24
3676.5681, 3.583070364e+25, 1.354192087e+24
3676.6294, 3.574244479e+25, 1.353217889e+24
3676.6907, 3.565418448e+25, 1.352243677e+24
3676.7521, 3.556592269e+25, 1.351269452e+24
3676.8134, 3.547765943e+25, 1.350295213e+24
3676.8747, 3.538939470e+25, 1.349320962e+24
3676.9360, 3.530112849e+25, 1.348346697e+24
3676.9973, 3.521286081e+25, 1.347372418e+24
3677.0587, 3.513582273e+25, 1.346478832e+24
3677.1200, 3.519181516e+25, 1.346541354e+24
3677.1813, 3.524780852e+25, 1.346604193e+24
3677.2427, 3.530380281e+25, 1.346667351e+24
3677.3040, 3.535979803e+25, 1.346730828e+24
3677.3653, 3.541579419e+25, 1.346794622e+24
3677.4267, 3.547179128e+25, 1.346858735e+24
3677.4880, 3.552778931e+25, 1.346923166e+24
3677.5493, 3.558378827e+25, 1.346987915e+24
3677.6107, 3.563978817e+25, 1.347052982e+24
3677.6720, 3.569578900e+25, 1.347118367e+24
