# wavelength, Lum, Lum_error
3650.0519, 2.489655711e+25, 1.186509776e+24
3650.1128, 2.496959637e+25, 1.188260805e+24
3650.1737, 2.505166503e+25, 1.190267684e+24
3650.2346, 2.513373505e+25, 1.192281845e+24
3650.2954, 2.521580645e+25, 1.194303251e+24
3650.3563, 2.529787921e+25, 1.196331865e+24
3650.4172, 2.537995335e+25, 1.198367652e+24
3650.4781, 2.546202885e+25, 1.200410576e+24
3650.5390, 2.554410572e+25, 1.202460601e+24
3650.5999, 2.562618396e+25, 1.204517691e+24
3650.6607, 2.570826357e+25, 1.206581810e+24
3650.7216, 2.579034455e+25, 1.208652924e+24
3650.7825, 2.587242690e+25, 1.210730996e+24
3650.8434, 2.595451061e+25, 1.212815992e+24
3650.9043, 2.603148115e+25, 1.214744012e+24
3650.9652, 2.603140416e+25, 1.214211307e+24
3651.0261, 2.603132716e+25, 1.213687256e+24
3651.0870, 2.603125017e+25, 1.213171873e+24
3651.1479, 2.603117317e+25, 1.212665168e+24
3651.2088, 2.603109617e+25, 1.212167152e+24
3651.2697, 2.603101917e+25, 1.211677837e+24
3651.3305, 2.603094217e+25, 1.211197234e+24
3651.3914, 2.603086516e+25, 1.210725354e+24
3651.4523, 2.603078816e+25, 1.210262207e+24
3651.5132, 2.603071116e+25, 1.209807803e+24
3651.5741, 2.603063415e+25, 1.209362154e+24
3651.6350, 2.603055714e+25, 1.208925268e+24
3651.6960, 2.603048013e+25, 1.208497157e+24
3651.7569, 2.599005636e+25, 1.207711447e+24
3651.8178, 2.583202598e+25, 1.205862063e+24
3651.8787, 2.567399297e+25, 1.204014283e+24
3651.9396, 2.551595732e+25, 1.202168115e+24
3652.0005, 2.535791904e+25, 1.200323568e+24
3652.0614, 2.519987811e+25, 1.198480647e+24
3652.1223, 2.504183456e+25, 1.196639362e+24
3652.1832, 2.488378837e+25, 1.194799721e+24
3652.2441, 2.472573954e+25, 1.192961730e+24
3652.3050, 2.456768807e+25, 1.191125398e+24
3652.3660, 2.440963397e+25, 1.189290732e+24
3652.4269, 2.425157724e+25, 1.187457741e+24
3652.4878, 2.409351786e+25, 1.185626433e+24
3652.5487, 2.393545586e+25, 1.183796816e+24
3652.6096, 2.394373064e+25, 1.183500991e+24
3652.6705, 2.415517740e+25, 1.185083551e+24
3652.7315, 2.436662768e+25, 1.186675171e+24
3652.7924, 2.457808149e+25, 1.188275813e+24
3652.8533, 2.478953883e+25, 1.189885442e+24
3652.9142, 2.500099970e+25, 1.191504023e+24
3652.9752, 2.521246409e+25, 1.193131519e+24
3653.0361, 2.542393200e+25, 1.194767894e+24
3653.0970, 2.563540345e+25, 1.196413112e+24
3653.1579, 2.584687842e+25, 1.198067138e+24
3653.2189, 2.605835692e+25, 1.199729936e+24
3653.2798, 2.626983894e+25, 1.201401470e+24
3653.3407, 2.648132450e+25, 1.203081703e+24
3653.4017, 2.669281358e+25, 1.204770601e+24
3653.4626, 2.666076183e+25, 1.204835167e+24
3653.5235, 2.649453798e+25, 1.204003080e+24
3653.5845, 2.632831136e+25, 1.203172733e+24
3653.6454, 2.616208196e+25, 1.202344129e+24
3653.7063, 2.599584979e+25, 1.201517271e+24
3653.7673, 2.582961485e+25, 1.200692165e+24
3653.8282, 2.566337714e+25, 1.199868812e+24
3653.8891, 2.549713665e+25, 1.199047218e+24
3653.9501, 2.533089339e+25, 1.198227385e+24
3654.0110, 2.516464736e+25, 1.197409318e+24
3654.0720, 2.499839856e+25, 1.196593020e+24
3654.1329, 2.483214698e+25, 1.195778495e+24
3654.1939, 2.466589263e+25, 1.194965747e+24
3654.2548, 2.449963551e+25, 1.194154779e+24
3654.3158, 2.446865955e+25, 1.194064553e+24
3654.3767, 2.446390151e+25, 1.194115315e+24
3654.4376, 2.445914339e+25, 1.194167717e+24
3654.4986, 2.445438519e+25, 1.194221761e+24
3654.5596, 2.444962691e+25, 1.194277446e+24
3654.6205, 2.444486855e+25, 1.194334771e+24
3654.6815, 2.444011012e+25, 1.194393737e+24
3654.7424, 2.443535160e+25, 1.194454344e+24
3654.8034, 2.443059300e+25, 1.194516591e+24
3654.8643, 2.442583433e+25, 1.194580478e+24
3654.9253, 2.442107557e+25, 1.194646005e+24
3654.9862, 2.441631674e+25, 1.194713171e+24
3655.0472, 2.441155782e+25, 1.194781978e+24
3655.1082, 2.441145175e+25, 1.194905749e+24
3655.1691, 2.455175671e+25, 1.196640549e+24
3655.2301, 2.469206402e+25, 1.198377381e+24
3655.2910, 2.483237366e+25, 1.200116236e+24
3655.3520, 2.497268565e+25, 1.201857106e+24
3655.4130, 2.511299997e+25, 1.203599982e+24
3655.4739, 2.525331664e+25, 1.205344855e+24
3655.5349, 2.539363564e+25, 1.207091717e+24
3655.5959, 2.553395699e+25, 1.208840560e+24
3655.6568, 2.567428067e+25, 1.210591375e+24
3655.7178, 2.581460670e+25, 1.212344154e+24
3655.7788, 2.595493507e+25, 1.214098889e+24
3655.8398, 2.609526578e+25, 1.215855572e+24
3655.9007, 2.623559882e+25, 1.217614193e+24
3655.9617, 2.634196550e+25, 1.218801711e+24
3656.0227, 2.633225537e+25, 1.218032146e+24
3656.0837, 2.632254507e+25, 1.217263142e+24
3656.1446, 2.631283460e+25, 1.216494700e+24
3656.2056, 2.630312398e+25, 1.215726822e+24
3656.2666, 2.629341319e+25, 1.214959508e+24
3656.3276, 2.628370224e+25, 1.214192760e+24
3656.3886, 2.627399113e+25, 1.213426579e+24
3656.4495, 2.626427986e+25, 1.212660966e+24
3656.5105, 2.625456843e+25, 1.211895921e+24
3656.5715, 2.624485683e+25, 1.211131447e+24
3656.6325, 2.623514507e+25, 1.210367544e+24
3656.6935, 2.622543315e+25, 1.209604214e+24
3656.7545, 2.621572107e+25, 1.208841457e+24
3656.8155, 2.614395969e+25, 1.207600756e+24
3656.8764, 2.598672018e+25, 1.205701883e+24
3656.9374, 2.582947804e+25, 1.203804209e+24
3656.9984, 2.567223329e+25, 1.201907739e+24
3657.0594, 2.551498591e+25, 1.200012479e+24
3657.1204, 2.535773590e+25, 1.198118434e+24
3657.1814, 2.520048328e+25, 1.196225612e+24
3657.2424, 2.504322803e+25, 1.194334018e+24
3657.3034, 2.488597016e+25, 1.192443658e+24
3657.3644, 2.472870967e+25, 1.190554538e+24
3657.4254, 2.457144655e+25, 1.188666665e+24
3657.4864, 2.441418082e+25, 1.186780044e+24
3657.5474, 2.425691245e+25, 1.184894681e+24
3657.6084, 2.409964147e+25, 1.183010584e+24
3657.6694, 2.413419059e+25, 1.182705570e+24
3657.7304, 2.428897203e+25, 1.183391610e+24
3657.7914, 2.444375605e+25, 1.184079960e+24
3657.8524, 2.459854265e+25, 1.184770614e+24
3657.9134, 2.475333183e+25, 1.185463570e+24
3657.9744, 2.490812359e+25, 1.186158823e+24
3658.0354, 2.506291793e+25, 1.186856369e+24
3658.0964, 2.521771486e+25, 1.187556205e+24
3658.1575, 2.537251437e+25, 1.188258326e+24
3658.2185, 2.552731646e+25, 1.188962729e+24
3658.2795, 2.568212113e+25, 1.189669410e+24
3658.3405, 2.583692838e+25, 1.190378365e+24
3658.4015, 2.599173821e+25, 1.191089589e+24
3658.4625, 2.614655063e+25, 1.191803079e+24
3658.5235, 2.617646077e+25, 1.192321527e+24
3658.5846, 2.617682896e+25, 1.192795651e+24
3658.6456, 2.617719715e+25, 1.193272122e+24
3658.7066, 2.617756535e+25, 1.193750938e+24
3658.7676, 2.617793356e+25, 1.194232096e+24
3658.8286, 2.617830177e+25, 1.194715594e+24
3658.8897, 2.617866999e+25, 1.195201428e+24
3658.9507, 2.617903821e+25, 1.195689597e+24
3659.0117, 2.617940645e+25, 1.196180097e+24
3659.0727, 2.617977468e+25, 1.196672925e+24
3659.1338, 2.618014293e+25, 1.197168080e+24
3659.1948, 2.618051117e+25, 1.197665557e+24
3659.2558, 2.618087943e+25, 1.198165355e+24
3659.3169, 2.618078213e+25, 1.198658054e+24
3659.3779, 2.600450679e+25, 1.195589013e+24
3659.4389, 2.582822852e+25, 1.192520650e+24
3659.5000, 2.565194730e+25, 1.189452972e+24
3659.5610, 2.547566315e+25, 1.186385983e+24
3659.6220, 2.529937605e+25, 1.183319691e+24
3659.6831, 2.512308602e+25, 1.180254100e+24
3659.7441, 2.494679305e+25, 1.177189216e+24
3659.8051, 2.477049713e+25, 1.174125046e+24
3659.8662, 2.459419827e+25, 1.171061596e+24
3659.9272, 2.441789648e+25, 1.167998872e+24
3659.9883, 2.424159174e+25, 1.164936879e+24
3660.0493, 2.406528407e+25, 1.161875625e+24
3660.1103, 2.388897345e+25, 1.158815115e+24
3660.1714, 2.374508251e+25, 1.156414290e+24
3660.2324, 2.373380985e+25, 1.156712212e+24
3660.2935, 2.372253700e+25, 1.157015443e+24
3660.3545, 2.371126396e+25, 1.157323979e+24
3660.4156, 2.369999073e+25, 1.157637815e+24
3660.4766, 2.368871731e+25, 1.157956949e+24
3660.5377, 2.367744371e+25, 1.158281376e+24
3660.5987, 2.366616992e+25, 1.158611091e+24
3660.6598, 2.365489594e+25, 1.158946091e+24
3660.7208, 2.364362177e+25, 1.159286371e+24
3660.7819, 2.363234742e+25, 1.159631927e+24
3660.8429, 2.362107287e+25, 1.159982754e+24
3660.9040, 2.360979814e+25, 1.160338848e+24
3660.9651, 2.359852322e+25, 1.160700204e+24
3661.0261, 2.368043727e+25, 1.161389837e+24
3661.0872, 2.390800830e+25, 1.162587888e+24
3661.1482, 2.413558314e+25, 1.163788718e+24
3661.2093, 2.436316177e+25, 1.164992320e+24
3661.2704, 2.459074420e+25, 1.166198685e+24
3661.3314, 2.481833042e+25, 1.167407804e+24
3661.3925, 2.504592044e+25, 1.168619670e+24
3661.4536, 2.527351425e+25, 1.169834273e+24
3661.5146, 2.550111186e+25, 1.171051606e+24
3661.5757, 2.572871326e+25, 1.172271660e+24
3661.6368, 2.595631846e+25, 1.173494428e+24
3661.6978, 2.618392746e+25, 1.174719900e+24
3661.7589, 2.641154026e+25, 1.175948069e+24
3661.8200, 2.663915685e+25, 1.177178925e+24
3661.8811, 2.673624233e+25, 1.177309326e+24
3661.9421, 2.674026425e+25, 1.176658008e+24
3662.0032, 2.674428624e+25, 1.176012002e+24
3662.0643, 2.674830830e+25, 1.175371320e+24
3662.1254, 2.675233042e+25, 1.174735968e+24
3662.1864, 2.675635262e+25, 1.174105957e+24
3662.2475, 2.676037487e+25, 1.173481295e+24
3662.3086, 2.676439720e+25, 1.172861991e+24
3662.3697, 2.676841959e+25, 1.172248054e+24
3662.4308, 2.677244205e+25, 1.171639492e+24
3662.4918, 2.677646458e+25, 1.171036315e+24
3662.5529, 2.678048717e+25, 1.170438530e+24
3662.6140, 2.678450983e+25, 1.169846146e+24
3662.6751, 2.678853256e+25, 1.169259173e+24
3662.7362, 2.655456376e+25, 1.165900170e+24
3662.7973, 2.625305417e+25, 1.161754279e+24
3662.8584, 2.595153955e+25, 1.157609170e+24
3662.9195, 2.565001989e+25, 1.153464851e+24
3662.9805, 2.534849521e+25, 1.149321331e+24
3663.0416, 2.504696550e+25, 1.145178619e+24
3663.1027, 2.474543077e+25, 1.141036726e+24
3663.1638, 2.444389100e+25, 1.136895662e+24
3663.2249, 2.414234620e+25, 1.132755435e+24
3663.2860, 2.384079637e+25, 1.128616056e+24
3663.3471, 2.353924152e+25, 1.124477536e+24
3663.4082, 2.323768163e+25, 1.120339884e+24
3663.4693, 2.293611672e+25, 1.116203111e+24
3663.5304, 2.263454677e+25, 1.112067228e+24
3663.5915, 2.262250213e+25, 1.112038211e+24
3663.6526, 2.261868059e+25, 1.112129904e+24
3663.7137, 2.261485897e+25, 1.112225732e+24
3663.7748, 2.261103730e+25, 1.112325694e+24
3663.8359, 2.260721556e+25, 1.112429790e+24
3663.8970, 2.260339376e+25, 1.112538018e+24
3663.9581, 2.259957189e+25, 1.112650378e+24
3664.0193, 2.259574996e+25, 1.112766869e+24
3664.0804, 2.259192797e+25, 1.112887489e+24
3664.1415, 2.258810591e+25, 1.113012237e+24
3664.2026, 2.258428379e+25, 1.113141112e+24
3664.2637, 2.258046160e+25, 1.113274114e+24
3664.3248, 2.257663935e+25, 1.113411239e+24
3664.3859, 2.260084806e+25, 1.114964332e+24
3664.4470, 2.276452159e+25, 1.123593266e+24
3664.5082, 2.292819784e+25, 1.132306039e+24
3664.5693, 2.309187683e+25, 1.141100738e+24
3664.6304, 2.325555854e+25, 1.149975492e+24
3664.6915, 2.341924299e+25, 1.158928468e+24
3664.7526, 2.358293016e+25, 1.167957875e+24
3664.8138, 2.374662007e+25, 1.177061961e+24
3664.8749, 2.391031270e+25, 1.186239014e+24
3664.9360, 2.407400807e+25, 1.195487361e+24
3664.9971, 2.423770616e+25, 1.204805366e+24
3665.0583, 2.440140699e+25, 1.214191433e+24
3665.1194, 2.456511054e+25, 1.223644002e+24
3665.1805, 2.472881683e+25, 1.233161552e+24
3665.2416, 2.483153632e+25, 1.236365052e+24
3665.3028, 2.482611172e+25, 1.228310143e+24
3665.3639, 2.482068702e+25, 1.220300069e+24
3665.4250, 2.481526224e+25, 1.212335723e+24
3665.4862, 2.480983737e+25, 1.204418017e+24
3665.5473, 2.480441240e+25, 1.196547882e+24
3665.6084, 2.479898735e+25, 1.188726269e+24
3665.6696, 2.479356220e+25, 1.180954145e+24
3665.7307, 2.478813696e+25, 1.173232501e+24
3665.7919, 2.478271164e+25, 1.165562343e+24
3665.8530, 2.477728622e+25, 1.157944702e+24
3665.9141, 2.477186071e+25, 1.150380624e+24
3665.9753, 2.476643511e+25, 1.142871179e+24
3666.0364, 2.476100943e+25, 1.135417456e+24
3666.0976, 2.468460121e+25, 1.130586211e+24
3666.1587, 2.455136578e+25, 1.127825978e+24
3666.2198, 2.441812813e+25, 1.125071325e+24
3666.2810, 2.428488826e+25, 1.122322293e+24
3666.3421, 2.415164617e+25, 1.119578925e+24
3666.4033, 2.401840186e+25, 1.116841263e+24
3666.4644, 2.388515532e+25, 1.114109349e+24
3666.5256, 2.375190656e+25, 1.111383227e+24
3666.5867, 2.361865558e+25, 1.108662940e+24
3666.6479, 2.348540237e+25, 1.105948531e+24
3666.7090, 2.335214695e+25, 1.103240046e+24
3666.7702, 2.321888930e+25, 1.100537527e+24
3666.8314, 2.308562943e+25, 1.097841020e+24
3666.8925, 2.295236733e+25, 1.095150569e+24
3666.9537, 2.306080923e+25, 1.096073973e+24
3667.0148, 2.325049313e+25, 1.098212052e+24
3667.0760, 2.344018020e+25, 1.100351623e+24
3667.1372, 2.362987043e+25, 1.102492676e+24
3667.1983, 2.381956382e+25, 1.104635204e+24
3667.2595, 2.400926038e+25, 1.106779198e+24
3667.3206, 2.419896010e+25, 1.108924649e+24
3667.3818, 2.438866298e+25, 1.111071551e+24
3667.4430, 2.457836903e+25, 1.113219894e+24
3667.5041, 2.476807824e+25, 1.115369670e+24
3667.5653, 2.495779062e+25, 1.117520872e+24
3667.6265, 2.514750616e+25, 1.119673492e+24
3667.6876, 2.533722486e+25, 1.121827522e+24
3667.7488, 2.552694673e+25, 1.123982953e+24
3667.8100, 2.541595375e+25, 1.123577576e+24
3667.8712, 2.528679680e+25, 1.123019638e+24
3667.9323, 2.515763770e+25, 1.122463910e+24
3667.9935, 2.502847644e+25, 1.121910395e+24
3668.0547, 2.489931302e+25, 1.121359097e+24
3668.1159, 2.477014746e+25, 1.120810019e+24
3668.1770, 2.464097974e+25, 1.120263164e+24
3668.2382, 2.451180986e+25, 1.119718537e+24
3668.2994, 2.438263783e+25, 1.119176140e+24
3668.3606, 2.425346364e+25, 1.118635976e+24
3668.4218, 2.412428731e+25, 1.118098049e+24
3668.4829, 2.399510881e+25, 1.117562363e+24
3668.5441, 2.386592816e+25, 1.117028921e+24
3668.6053, 2.375751113e+25, 1.116685946e+24
3668.6665, 2.377928991e+25, 1.117524674e+24
3668.7277, 2.380106905e+25, 1.118364508e+24
3668.7889, 2.382284856e+25, 1.119205445e+24
3668.8501, 2.384462842e+25, 1.120047483e+24
3668.9113, 2.386640865e+25, 1.120890620e+24
3668.9724, 2.388818925e+25, 1.121734852e+24
3669.0336, 2.390997020e+25, 1.122580178e+24
3669.0948, 2.393175152e+25, 1.123426596e+24
3669.1560, 2.395353321e+25, 1.124274103e+24
3669.2172, 2.397531525e+25, 1.125122696e+24
3669.2784, 2.399709766e+25, 1.125972374e+24
3669.3396, 2.401888044e+25, 1.126823133e+24
3669.4008, 2.404066357e+25, 1.127674972e+24
3669.4620, 2.408472215e+25, 1.128173024e+24
3669.5232, 2.417393680e+25, 1.127954478e+24
3669.5844, 2.426315293e+25, 1.127739548e+24
3669.6456, 2.435237056e+25, 1.127528237e+24
3669.7068, 2.444158967e+25, 1.127320548e+24
3669.7680, 2.453081027e+25, 1.127116482e+24
3669.8292, 2.462003235e+25, 1.126916042e+24
3669.8904, 2.470925593e+25, 1.126719230e+24
3669.9516, 2.479848099e+25, 1.126526047e+24
3670.0129, 2.488770754e+25, 1.126336497e+24
3670.0741, 2.497693558e+25, 1.126150580e+24
3670.1353, 2.506616511e+25, 1.125968299e+24
3670.1965, 2.515539613e+25, 1.125789656e+24
3670.2577, 2.524462863e+25, 1.125614653e+24
3670.3189, 2.528023466e+25, 1.125601670e+24
3670.3801, 2.526725730e+25, 1.125734751e+24
3670.4413, 2.525427972e+25, 1.125870087e+24
3670.5026, 2.524130193e+25, 1.126007676e+24
3670.5638, 2.522832392e+25, 1.126147518e+24
3670.6250, 2.521534569e+25, 1.126289611e+24
3670.6862, 2.520236725e+25, 1.126433956e+24
3670.7474, 2.518938859e+25, 1.126580552e+24
3670.8087, 2.517640971e+25, 1.126729397e+24
3670.8699, 2.516343062e+25, 1.126880490e+24
3670.9311, 2.515045131e+25, 1.127033832e+24
3670.9923, 2.513747179e+25, 1.127189422e+24
3671.0536, 2.512449205e+25, 1.127347257e+24
3671.1148, 2.511151209e+25, 1.127507339e+24
3671.1760, 2.510907459e+25, 1.128373415e+24
3671.2372, 2.511075899e+25, 1.129518668e+24
3671.2985, 2.511244343e+25, 1.130668229e+24
3671.3597, 2.511412790e+25, 1.131822088e+24
3671.4209, 2.511581239e+25, 1.132980229e+24
3671.4822, 2.511749691e+25, 1.134142641e+24
3671.5434, 2.511918146e+25, 1.135309310e+24
3671.6046, 2.512086604e+25, 1.136480225e+24
3671.6659, 2.512255064e+25, 1.137655371e+24
3671.7271, 2.512423527e+25, 1.138834737e+24
3671.7884, 2.512591994e+25, 1.140018309e+24
3671.8496, 2.512760462e+25, 1.141206074e+24
3671.9108, 2.512928934e+25, 1.142398020e+24
3671.9721, 2.513097409e+25, 1.143594134e+24
3672.0333, 2.532712402e+25, 1.143481247e+24
3672.0946, 2.554179002e+25, 1.143257313e+24
3672.1558, 2.575645960e+25, 1.143047797e+24
3672.2171, 2.597113276e+25, 1.142852707e+24
3672.2783, 2.618580949e+25, 1.142672051e+24
3672.3395, 2.640048981e+25, 1.142505837e+24
3672.4008, 2.661517371e+25, 1.142354071e+24
3672.4620, 2.682986120e+25, 1.142216761e+24
3672.5233, 2.704455226e+25, 1.142093912e+24
3672.5845, 2.725924690e+25, 1.141985529e+24
3672.6458, 2.747394512e+25, 1.141891618e+24
3672.7071, 2.768864693e+25, 1.141812182e+24
3672.7683, 2.790335231e+25, 1.141747226e+24
3672.8296, 2.804992712e+25, 1.141390728e+24
3672.8908, 2.762873936e+25, 1.138490879e+24
3672.9521, 2.720754458e+25, 1.135591543e+24
3673.0133, 2.678634278e+25, 1.132692726e+24
3673.0746, 2.636513395e+25, 1.129794431e+24
3673.1359, 2.594391810e+25, 1.126896662e+24
3673.1971, 2.552269522e+25, 1.123999426e+24
3673.2584, 2.510146531e+25, 1.121102725e+24
3673.3196, 2.468022838e+25, 1.118206564e+24
3673.3809, 2.425898443e+25, 1.115310948e+24
3673.4422, 2.383773345e+25, 1.112415883e+24
3673.5034, 2.341647544e+25, 1.109521371e+24
3673.5647, 2.299521041e+25, 1.106627419e+24
3673.6260, 2.257393835e+25, 1.103734030e+24
3673.6873, 2.226944649e+25, 1.101177291e+24
3673.7485, 2.223599356e+25, 1.099402938e+24
3673.8098, 2.220254006e+25, 1.097631988e+24
3673.8711, 2.216908601e+25, 1.095864456e+24
3673.9323, 2.213563140e+25, 1.094100360e+24
3673.9936, 2.210217624e+25, 1.092339716e+24
3674.0549, 2.206872051e+25, 1.090582543e+24
3674.1162, 2.203526423e+25, 1.088828857e+24
3674.1774, 2.200180739e+25, 1.087078675e+24
3674.2387, 2.196834999e+25, 1.085332014e+24
3674.3000, 2.193489203e+25, 1.083588892e+24
3674.3613, 2.190143352e+25, 1.081849327e+24
3674.4226, 2.186797444e+25, 1.080113335e+24
3674.4839, 2.183451481e+25, 1.078380935e+24
3674.5451, 2.187841472e+25, 1.078165708e+24
3674.6064, 2.200122968e+25, 1.079495513e+24
3674.6677, 2.212404670e+25, 1.080825530e+24
3674.7290, 2.224686576e+25, 1.082155756e+24
3674.7903, 2.236968687e+25, 1.083486192e+24
3674.8516, 2.249251003e+25, 1.084816836e+24
3674.9129, 2.261533524e+25, 1.086147689e+24
3674.9742, 2.273816249e+25, 1.087478749e+24
3675.0354, 2.286099180e+25, 1.088810016e+24
3675.0967, 2.298382315e+25, 1.090141488e+24
3675.1580, 2.310665655e+25, 1.091473167e+24
3675.2193, 2.322949201e+25, 1.092805050e+24
3675.2806, 2.335232950e+25, 1.094137137e+24
3675.3419, 2.347516905e+25, 1.095469427e+24
3675.4032, 2.348660292e+25, 1.094684816e+24
3675.4645, 2.344771272e+25, 1.092945142e+24
3675.5258, 2.340882186e+25, 1.091206919e+24
3675.5871, 2.336993036e+25, 1.089470155e+24
3675.6484, 2.333103821e+25, 1.087734856e+24
3675.7097, 2.329214541e+25, 1.086001031e+24
3675.7710, 2.325325196e+25, 1.084268686e+24
3675.8323, 2.321435786e+25, 1.082537829e+24
3675.8937, 2.317546312e+25, 1.080808467e+24
3675.9550, 2.313656772e+25, 1.079080607e+24
3676.0163, 2.309767168e+25, 1.077354257e+24
3676.0776, 2.305877499e+25, 1.075629424e+24
3676.1389, 2.301987764e+25, 1.073906116e+24
3676.2002, 2.298097965e+25, 1.072184341e+24
3676.2615, 2.305984871e+25, 1.071724596e+24
3676.3228, 2.315438816e+25, 1.071433230e+24
3676.3841, 2.324892919e+25, 1.071142483e+24
3676.4455, 2.334347180e+25, 1.070852354e+24
3676.5068, 2.343801598e+25, 1.070562844e+24
3676.5681, 2.353256174e+25, 1.070273955e+24
3676.6294, 2.362710907e+25, 1.069985685e+24
3676.6907, 2.372165799e+25, 1.069698036e+24
3676.7521, 2.381620848e+25, 1.069411009e+24
3676.8134, 2.391076054e+25, 1.069124603e+24
3676.8747, 2.400531419e+25, 1.068838820e+24
3676.9360, 2.409986941e+25, 1.068553660e+24
3676.9973, 2.419442621e+25, 1.068269123e+24
3677.0587, 2.428846756e+25, 1.068027327e+24
3677.1200, 2.437638636e+25, 1.068284853e+24
3677.1813, 2.446430662e+25, 1.068542691e+24
3677.2427, 2.455222835e+25, 1.068800841e+24
3677.3040, 2.464015155e+25, 1.069059302e+24
3677.3653, 2.472807621e+25, 1.069318075e+24
3677.4267, 2.481600234e+25, 1.069577158e+24
3677.4880, 2.490392994e+25, 1.069836553e+24
3677.5493, 2.499185901e+25, 1.070096258e+24
3677.6107, 2.507978953e+25, 1.070356273e+24
3677.6720, 2.516772153e+25, 1.070616599e+24
